Created as New Dataset,ABS black tube
cm-1,%T
4000.00,97.40
3999.00,97.40
3998.00,97.40
3997.00,97.40
3996.00,97.40
3995.00,97.41
3994.00,97.41
3993.00,97.41
3992.00,97.41
3991.00,97.41
3990.00,97.42
3989.00,97.42
3988.00,97.42
3987.00,97.42
3986.00,97.41
3985.00,97.41
3984.00,97.41
3983.00,97.41
3982.00,97.41
3981.00,97.41
3980.00,97.41
3979.00,97.41
3978.00,97.41
3977.00,97.41
3976.00,97.41
3975.00,97.41
3974.00,97.42
3973.00,97.42
3972.00,97.42
3971.00,97.42
3970.00,97.42
3969.00,97.43
3968.00,97.43
3967.00,97.43
3966.00,97.42
3965.00,97.42
3964.00,97.41
3963.00,97.41
3962.00,97.41
3961.00,97.42
3960.00,97.42
3959.00,97.42
3958.00,97.42
3957.00,97.41
3956.00,97.41
3955.00,97.41
3954.00,97.42
3953.00,97.42
3952.00,97.42
3951.00,97.42
3950.00,97.42
3949.00,97.42
3948.00,97.42
3947.00,97.42
3946.00,97.42
3945.00,97.42
3944.00,97.41
3943.00,97.41
3942.00,97.41
3941.00,97.41
3940.00,97.41
3939.00,97.41
3938.00,97.41
3937.00,97.41
3936.00,97.41
3935.00,97.41
3934.00,97.41
3933.00,97.41
3932.00,97.41
3931.00,97.41
3930.00,97.41
3929.00,97.41
3928.00,97.41
3927.00,97.41
3926.00,97.41
3925.00,97.41
3924.00,97.40
3923.00,97.40
3922.00,97.40
3921.00,97.40
3920.00,97.40
3919.00,97.40
3918.00,97.41
3917.00,97.40
3916.00,97.40
3915.00,97.40
3914.00,97.40
3913.00,97.40
3912.00,97.40
3911.00,97.41
3910.00,97.41
3909.00,97.41
3908.00,97.42
3907.00,97.42
3906.00,97.41
3905.00,97.41
3904.00,97.41
3903.00,97.41
3902.00,97.41
3901.00,97.41
3900.00,97.41
3899.00,97.41
3898.00,97.41
3897.00,97.41
3896.00,97.41
3895.00,97.41
3894.00,97.40
3893.00,97.40
3892.00,97.40
3891.00,97.40
3890.00,97.41
3889.00,97.41
3888.00,97.41
3887.00,97.41
3886.00,97.41
3885.00,97.41
3884.00,97.41
3883.00,97.41
3882.00,97.42
3881.00,97.42
3880.00,97.42
3879.00,97.42
3878.00,97.41
3877.00,97.41
3876.00,97.40
3875.00,97.40
3874.00,97.40
3873.00,97.41
3872.00,97.41
3871.00,97.41
3870.00,97.41
3869.00,97.41
3868.00,97.42
3867.00,97.42
3866.00,97.42
3865.00,97.42
3864.00,97.42
3863.00,97.42
3862.00,97.42
3861.00,97.41
3860.00,97.41
3859.00,97.41
3858.00,97.41
3857.00,97.42
3856.00,97.43
3855.00,97.43
3854.00,97.42
3853.00,97.41
3852.00,97.41
3851.00,97.41
3850.00,97.41
3849.00,97.40
3848.00,97.40
3847.00,97.40
3846.00,97.40
3845.00,97.39
3844.00,97.39
3843.00,97.39
3842.00,97.39
3841.00,97.39
3840.00,97.39
3839.00,97.39
3838.00,97.39
3837.00,97.39
3836.00,97.39
3835.00,97.39
3834.00,97.39
3833.00,97.38
3832.00,97.38
3831.00,97.38
3830.00,97.38
3829.00,97.38
3828.00,97.37
3827.00,97.37
3826.00,97.37
3825.00,97.37
3824.00,97.38
3823.00,97.38
3822.00,97.38
3821.00,97.38
3820.00,97.38
3819.00,97.38
3818.00,97.38
3817.00,97.37
3816.00,97.37
3815.00,97.37
3814.00,97.37
3813.00,97.37
3812.00,97.36
3811.00,97.36
3810.00,97.35
3809.00,97.35
3808.00,97.35
3807.00,97.35
3806.00,97.36
3805.00,97.36
3804.00,97.36
3803.00,97.36
3802.00,97.35
3801.00,97.35
3800.00,97.36
3799.00,97.36
3798.00,97.36
3797.00,97.36
3796.00,97.36
3795.00,97.36
3794.00,97.36
3793.00,97.36
3792.00,97.35
3791.00,97.35
3790.00,97.35
3789.00,97.35
3788.00,97.35
3787.00,97.35
3786.00,97.35
3785.00,97.35
3784.00,97.35
3783.00,97.35
3782.00,97.35
3781.00,97.35
3780.00,97.35
3779.00,97.34
3778.00,97.34
3777.00,97.34
3776.00,97.34
3775.00,97.34
3774.00,97.34
3773.00,97.34
3772.00,97.33
3771.00,97.33
3770.00,97.33
3769.00,97.33
3768.00,97.33
3767.00,97.33
3766.00,97.33
3765.00,97.34
3764.00,97.34
3763.00,97.34
3762.00,97.34
3761.00,97.34
3760.00,97.34
3759.00,97.33
3758.00,97.33
3757.00,97.33
3756.00,97.33
3755.00,97.33
3754.00,97.34
3753.00,97.34
3752.00,97.34
3751.00,97.34
3750.00,97.34
3749.00,97.34
3748.00,97.34
3747.00,97.33
3746.00,97.32
3745.00,97.32
3744.00,97.33
3743.00,97.33
3742.00,97.34
3741.00,97.34
3740.00,97.33
3739.00,97.33
3738.00,97.33
3737.00,97.33
3736.00,97.33
3735.00,97.33
3734.00,97.33
3733.00,97.33
3732.00,97.33
3731.00,97.33
3730.00,97.33
3729.00,97.33
3728.00,97.32
3727.00,97.31
3726.00,97.31
3725.00,97.31
3724.00,97.31
3723.00,97.31
3722.00,97.31
3721.00,97.31
3720.00,97.31
3719.00,97.31
3718.00,97.31
3717.00,97.32
3716.00,97.32
3715.00,97.32
3714.00,97.33
3713.00,97.33
3712.00,97.33
3711.00,97.32
3710.00,97.32
3709.00,97.32
3708.00,97.31
3707.00,97.31
3706.00,97.31
3705.00,97.30
3704.00,97.30
3703.00,97.30
3702.00,97.31
3701.00,97.31
3700.00,97.31
3699.00,97.31
3698.00,97.31
3697.00,97.31
3696.00,97.31
3695.00,97.31
3694.00,97.31
3693.00,97.31
3692.00,97.31
3691.00,97.30
3690.00,97.30
3689.00,97.29
3688.00,97.29
3687.00,97.29
3686.00,97.29
3685.00,97.28
3684.00,97.27
3683.00,97.26
3682.00,97.25
3681.00,97.25
3680.00,97.25
3679.00,97.25
3678.00,97.25
3677.00,97.24
3676.00,97.23
3675.00,97.22
3674.00,97.22
3673.00,97.22
3672.00,97.21
3671.00,97.19
3670.00,97.18
3669.00,97.18
3668.00,97.17
3667.00,97.17
3666.00,97.16
3665.00,97.14
3664.00,97.13
3663.00,97.13
3662.00,97.12
3661.00,97.12
3660.00,97.11
3659.00,97.11
3658.00,97.10
3657.00,97.09
3656.00,97.09
3655.00,97.08
3654.00,97.08
3653.00,97.08
3652.00,97.07
3651.00,97.07
3650.00,97.06
3649.00,97.06
3648.00,97.06
3647.00,97.07
3646.00,97.07
3645.00,97.08
3644.00,97.08
3643.00,97.08
3642.00,97.09
3641.00,97.10
3640.00,97.10
3639.00,97.11
3638.00,97.11
3637.00,97.11
3636.00,97.12
3635.00,97.12
3634.00,97.13
3633.00,97.14
3632.00,97.14
3631.00,97.14
3630.00,97.14
3629.00,97.15
3628.00,97.15
3627.00,97.16
3626.00,97.16
3625.00,97.16
3624.00,97.16
3623.00,97.16
3622.00,97.16
3621.00,97.17
3620.00,97.17
3619.00,97.17
3618.00,97.18
3617.00,97.18
3616.00,97.19
3615.00,97.19
3614.00,97.20
3613.00,97.20
3612.00,97.21
3611.00,97.22
3610.00,97.22
3609.00,97.23
3608.00,97.23
3607.00,97.23
3606.00,97.24
3605.00,97.24
3604.00,97.24
3603.00,97.24
3602.00,97.24
3601.00,97.25
3600.00,97.25
3599.00,97.25
3598.00,97.25
3597.00,97.25
3596.00,97.25
3595.00,97.25
3594.00,97.26
3593.00,97.26
3592.00,97.27
3591.00,97.27
3590.00,97.28
3589.00,97.28
3588.00,97.28
3587.00,97.28
3586.00,97.27
3585.00,97.26
3584.00,97.26
3583.00,97.26
3582.00,97.26
3581.00,97.26
3580.00,97.26
3579.00,97.26
3578.00,97.26
3577.00,97.26
3576.00,97.26
3575.00,97.25
3574.00,97.25
3573.00,97.25
3572.00,97.25
3571.00,97.26
3570.00,97.25
3569.00,97.25
3568.00,97.24
3567.00,97.23
3566.00,97.22
3565.00,97.22
3564.00,97.22
3563.00,97.22
3562.00,97.22
3561.00,97.22
3560.00,97.21
3559.00,97.21
3558.00,97.21
3557.00,97.21
3556.00,97.21
3555.00,97.20
3554.00,97.20
3553.00,97.19
3552.00,97.18
3551.00,97.18
3550.00,97.18
3549.00,97.18
3548.00,97.17
3547.00,97.17
3546.00,97.17
3545.00,97.17
3544.00,97.17
3543.00,97.17
3542.00,97.17
3541.00,97.17
3540.00,97.17
3539.00,97.17
3538.00,97.16
3537.00,97.16
3536.00,97.16
3535.00,97.17
3534.00,97.17
3533.00,97.17
3532.00,97.18
3531.00,97.17
3530.00,97.17
3529.00,97.17
3528.00,97.17
3527.00,97.18
3526.00,97.18
3525.00,97.18
3524.00,97.18
3523.00,97.19
3522.00,97.19
3521.00,97.19
3520.00,97.19
3519.00,97.19
3518.00,97.19
3517.00,97.19
3516.00,97.19
3515.00,97.20
3514.00,97.20
3513.00,97.21
3512.00,97.21
3511.00,97.21
3510.00,97.22
3509.00,97.22
3508.00,97.22
3507.00,97.22
3506.00,97.22
3505.00,97.22
3504.00,97.23
3503.00,97.23
3502.00,97.23
3501.00,97.24
3500.00,97.24
3499.00,97.24
3498.00,97.24
3497.00,97.24
3496.00,97.24
3495.00,97.24
3494.00,97.24
3493.00,97.24
3492.00,97.24
3491.00,97.24
3490.00,97.24
3489.00,97.25
3488.00,97.25
3487.00,97.25
3486.00,97.26
3485.00,97.26
3484.00,97.26
3483.00,97.26
3482.00,97.26
3481.00,97.26
3480.00,97.26
3479.00,97.26
3478.00,97.26
3477.00,97.25
3476.00,97.25
3475.00,97.25
3474.00,97.26
3473.00,97.26
3472.00,97.27
3471.00,97.27
3470.00,97.27
3469.00,97.27
3468.00,97.27
3467.00,97.27
3466.00,97.27
3465.00,97.27
3464.00,97.27
3463.00,97.27
3462.00,97.27
3461.00,97.27
3460.00,97.26
3459.00,97.26
3458.00,97.26
3457.00,97.26
3456.00,97.26
3455.00,97.26
3454.00,97.26
3453.00,97.26
3452.00,97.26
3451.00,97.27
3450.00,97.27
3449.00,97.27
3448.00,97.27
3447.00,97.26
3446.00,97.26
3445.00,97.26
3444.00,97.26
3443.00,97.26
3442.00,97.26
3441.00,97.26
3440.00,97.26
3439.00,97.27
3438.00,97.27
3437.00,97.27
3436.00,97.28
3435.00,97.28
3434.00,97.28
3433.00,97.28
3432.00,97.28
3431.00,97.28
3430.00,97.28
3429.00,97.28
3428.00,97.28
3427.00,97.28
3426.00,97.28
3425.00,97.28
3424.00,97.28
3423.00,97.29
3422.00,97.29
3421.00,97.29
3420.00,97.29
3419.00,97.29
3418.00,97.29
3417.00,97.29
3416.00,97.29
3415.00,97.30
3414.00,97.30
3413.00,97.30
3412.00,97.30
3411.00,97.30
3410.00,97.30
3409.00,97.30
3408.00,97.31
3407.00,97.31
3406.00,97.31
3405.00,97.31
3404.00,97.31
3403.00,97.31
3402.00,97.31
3401.00,97.31
3400.00,97.31
3399.00,97.31
3398.00,97.31
3397.00,97.31
3396.00,97.31
3395.00,97.31
3394.00,97.31
3393.00,97.31
3392.00,97.31
3391.00,97.31
3390.00,97.31
3389.00,97.31
3388.00,97.31
3387.00,97.31
3386.00,97.31
3385.00,97.31
3384.00,97.31
3383.00,97.31
3382.00,97.31
3381.00,97.31
3380.00,97.32
3379.00,97.32
3378.00,97.31
3377.00,97.31
3376.00,97.31
3375.00,97.31
3374.00,97.31
3373.00,97.32
3372.00,97.32
3371.00,97.32
3370.00,97.32
3369.00,97.32
3368.00,97.32
3367.00,97.32
3366.00,97.32
3365.00,97.32
3364.00,97.32
3363.00,97.32
3362.00,97.32
3361.00,97.32
3360.00,97.32
3359.00,97.31
3358.00,97.31
3357.00,97.31
3356.00,97.31
3355.00,97.31
3354.00,97.31
3353.00,97.31
3352.00,97.31
3351.00,97.31
3350.00,97.31
3349.00,97.31
3348.00,97.31
3347.00,97.31
3346.00,97.31
3345.00,97.31
3344.00,97.31
3343.00,97.31
3342.00,97.31
3341.00,97.31
3340.00,97.31
3339.00,97.31
3338.00,97.32
3337.00,97.32
3336.00,97.32
3335.00,97.31
3334.00,97.31
3333.00,97.31
3332.00,97.31
3331.00,97.31
3330.00,97.31
3329.00,97.31
3328.00,97.31
3327.00,97.31
3326.00,97.31
3325.00,97.31
3324.00,97.31
3323.00,97.31
3322.00,97.31
3321.00,97.31
3320.00,97.30
3319.00,97.30
3318.00,97.31
3317.00,97.31
3316.00,97.31
3315.00,97.31
3314.00,97.31
3313.00,97.31
3312.00,97.31
3311.00,97.31
3310.00,97.31
3309.00,97.31
3308.00,97.31
3307.00,97.31
3306.00,97.31
3305.00,97.31
3304.00,97.31
3303.00,97.31
3302.00,97.31
3301.00,97.31
3300.00,97.31
3299.00,97.31
3298.00,97.31
3297.00,97.31
3296.00,97.31
3295.00,97.31
3294.00,97.31
3293.00,97.31
3292.00,97.31
3291.00,97.31
3290.00,97.31
3289.00,97.31
3288.00,97.30
3287.00,97.30
3286.00,97.30
3285.00,97.30
3284.00,97.30
3283.00,97.30
3282.00,97.30
3281.00,97.30
3280.00,97.30
3279.00,97.30
3278.00,97.30
3277.00,97.30
3276.00,97.30
3275.00,97.30
3274.00,97.30
3273.00,97.30
3272.00,97.30
3271.00,97.29
3270.00,97.29
3269.00,97.29
3268.00,97.29
3267.00,97.29
3266.00,97.29
3265.00,97.29
3264.00,97.29
3263.00,97.29
3262.00,97.29
3261.00,97.29
3260.00,97.29
3259.00,97.29
3258.00,97.30
3257.00,97.30
3256.00,97.30
3255.00,97.30
3254.00,97.30
3253.00,97.30
3252.00,97.29
3251.00,97.29
3250.00,97.29
3249.00,97.29
3248.00,97.29
3247.00,97.28
3246.00,97.28
3245.00,97.28
3244.00,97.28
3243.00,97.28
3242.00,97.28
3241.00,97.29
3240.00,97.28
3239.00,97.28
3238.00,97.28
3237.00,97.28
3236.00,97.28
3235.00,97.28
3234.00,97.28
3233.00,97.29
3232.00,97.29
3231.00,97.29
3230.00,97.29
3229.00,97.28
3228.00,97.28
3227.00,97.28
3226.00,97.28
3225.00,97.28
3224.00,97.28
3223.00,97.28
3222.00,97.28
3221.00,97.27
3220.00,97.27
3219.00,97.27
3218.00,97.26
3217.00,97.26
3216.00,97.25
3215.00,97.25
3214.00,97.25
3213.00,97.25
3212.00,97.25
3211.00,97.25
3210.00,97.26
3209.00,97.26
3208.00,97.25
3207.00,97.25
3206.00,97.25
3205.00,97.25
3204.00,97.25
3203.00,97.25
3202.00,97.25
3201.00,97.25
3200.00,97.25
3199.00,97.25
3198.00,97.25
3197.00,97.25
3196.00,97.26
3195.00,97.26
3194.00,97.26
3193.00,97.26
3192.00,97.26
3191.00,97.26
3190.00,97.26
3189.00,97.26
3188.00,97.26
3187.00,97.26
3186.00,97.26
3185.00,97.26
3184.00,97.26
3183.00,97.26
3182.00,97.26
3181.00,97.26
3180.00,97.26
3179.00,97.26
3178.00,97.26
3177.00,97.26
3176.00,97.25
3175.00,97.25
3174.00,97.25
3173.00,97.24
3172.00,97.24
3171.00,97.24
3170.00,97.23
3169.00,97.23
3168.00,97.22
3167.00,97.22
3166.00,97.21
3165.00,97.21
3164.00,97.21
3163.00,97.21
3162.00,97.22
3161.00,97.22
3160.00,97.22
3159.00,97.23
3158.00,97.23
3157.00,97.24
3156.00,97.24
3155.00,97.24
3154.00,97.25
3153.00,97.25
3152.00,97.25
3151.00,97.25
3150.00,97.25
3149.00,97.25
3148.00,97.25
3147.00,97.25
3146.00,97.26
3145.00,97.26
3144.00,97.26
3143.00,97.25
3142.00,97.25
3141.00,97.25
3140.00,97.24
3139.00,97.24
3138.00,97.24
3137.00,97.24
3136.00,97.24
3135.00,97.24
3134.00,97.23
3133.00,97.23
3132.00,97.23
3131.00,97.22
3130.00,97.22
3129.00,97.22
3128.00,97.22
3127.00,97.21
3126.00,97.21
3125.00,97.20
3124.00,97.19
3123.00,97.18
3122.00,97.17
3121.00,97.16
3120.00,97.14
3119.00,97.12
3118.00,97.09
3117.00,97.06
3116.00,97.02
3115.00,96.98
3114.00,96.94
3113.00,96.88
3112.00,96.83
3111.00,96.77
3110.00,96.71
3109.00,96.66
3108.00,96.61
3107.00,96.58
3106.00,96.56
3105.00,96.54
3104.00,96.55
3103.00,96.56
3102.00,96.57
3101.00,96.59
3100.00,96.59
3099.00,96.59
3098.00,96.57
3097.00,96.53
3096.00,96.48
3095.00,96.41
3094.00,96.31
3093.00,96.19
3092.00,96.05
3091.00,95.89
3090.00,95.71
3089.00,95.54
3088.00,95.38
3087.00,95.25
3086.00,95.15
3085.00,95.09
3084.00,95.08
3083.00,95.12
3082.00,95.19
3081.00,95.27
3080.00,95.36
3079.00,95.43
3078.00,95.48
3077.00,95.50
3076.00,95.50
3075.00,95.48
3074.00,95.43
3073.00,95.36
3072.00,95.27
3071.00,95.16
3070.00,95.02
3069.00,94.87
3068.00,94.70
3067.00,94.53
3066.00,94.36
3065.00,94.21
3064.00,94.10
3063.00,94.02
3062.00,93.99
3061.00,94.01
3060.00,94.07
3059.00,94.17
3058.00,94.30
3057.00,94.45
3056.00,94.60
3055.00,94.75
3054.00,94.90
3053.00,95.02
3052.00,95.14
3051.00,95.23
3050.00,95.30
3049.00,95.35
3048.00,95.37
3047.00,95.36
3046.00,95.32
3045.00,95.26
3044.00,95.18
3043.00,95.07
3042.00,94.93
3041.00,94.77
3040.00,94.58
3039.00,94.36
3038.00,94.10
3037.00,93.80
3036.00,93.46
3035.00,93.09
3034.00,92.70
3033.00,92.29
3032.00,91.90
3031.00,91.54
3030.00,91.24
3029.00,91.04
3028.00,90.94
3027.00,90.96
3026.00,91.10
3025.00,91.36
3024.00,91.70
3023.00,92.09
3022.00,92.51
3021.00,92.92
3020.00,93.30
3019.00,93.62
3018.00,93.88
3017.00,94.07
3016.00,94.21
3015.00,94.30
3014.00,94.35
3013.00,94.35
3012.00,94.33
3011.00,94.27
3010.00,94.20
3009.00,94.12
3008.00,94.04
3007.00,93.97
3006.00,93.92
3005.00,93.91
3004.00,93.93
3003.00,94.01
3002.00,94.12
3001.00,94.26
3000.00,94.43
2999.00,94.60
2998.00,94.77
2997.00,94.91
2996.00,95.03
2995.00,95.13
2994.00,95.20
2993.00,95.25
2992.00,95.28
2991.00,95.30
2990.00,95.30
2989.00,95.29
2988.00,95.28
2987.00,95.25
2986.00,95.22
2985.00,95.18
2984.00,95.15
2983.00,95.10
2982.00,95.05
2981.00,95.00
2980.00,94.95
2979.00,94.89
2978.00,94.83
2977.00,94.76
2976.00,94.70
2975.00,94.62
2974.00,94.53
2973.00,94.43
2972.00,94.32
2971.00,94.21
2970.00,94.08
2969.00,93.93
2968.00,93.78
2967.00,93.61
2966.00,93.43
2965.00,93.25
2964.00,93.05
2963.00,92.85
2962.00,92.65
2961.00,92.44
2960.00,92.23
2959.00,92.02
2958.00,91.82
2957.00,91.63
2956.00,91.44
2955.00,91.25
2954.00,91.06
2953.00,90.86
2952.00,90.66
2951.00,90.45
2950.00,90.24
2949.00,90.02
2948.00,89.80
2947.00,89.58
2946.00,89.34
2945.00,89.10
2944.00,88.86
2943.00,88.61
2942.00,88.36
2941.00,88.11
2940.00,87.86
2939.00,87.62
2938.00,87.37
2937.00,87.13
2936.00,86.90
2935.00,86.67
2934.00,86.45
2933.00,86.23
2932.00,86.03
2931.00,85.84
2930.00,85.65
2929.00,85.48
2928.00,85.31
2927.00,85.16
2926.00,85.03
2925.00,84.92
2924.00,84.83
2923.00,84.78
2922.00,84.76
2921.00,84.79
2920.00,84.87
2919.00,85.01
2918.00,85.18
2917.00,85.41
2916.00,85.66
2915.00,85.94
2914.00,86.23
2913.00,86.52
2912.00,86.81
2911.00,87.10
2910.00,87.37
2909.00,87.64
2908.00,87.91
2907.00,88.16
2906.00,88.41
2905.00,88.65
2904.00,88.89
2903.00,89.11
2902.00,89.32
2901.00,89.51
2900.00,89.70
2899.00,89.88
2898.00,90.05
2897.00,90.21
2896.00,90.37
2895.00,90.52
2894.00,90.66
2893.00,90.81
2892.00,90.96
2891.00,91.10
2890.00,91.25
2889.00,91.39
2888.00,91.53
2887.00,91.67
2886.00,91.80
2885.00,91.92
2884.00,92.04
2883.00,92.15
2882.00,92.25
2881.00,92.34
2880.00,92.42
2879.00,92.49
2878.00,92.54
2877.00,92.58
2876.00,92.61
2875.00,92.63
2874.00,92.64
2873.00,92.65
2872.00,92.65
2871.00,92.65
2870.00,92.63
2869.00,92.61
2868.00,92.57
2867.00,92.52
2866.00,92.46
2865.00,92.39
2864.00,92.31
2863.00,92.21
2862.00,92.11
2861.00,92.00
2860.00,91.89
2859.00,91.78
2858.00,91.67
2857.00,91.56
2856.00,91.44
2855.00,91.33
2854.00,91.23
2853.00,91.16
2852.00,91.12
2851.00,91.14
2850.00,91.21
2849.00,91.33
2848.00,91.49
2847.00,91.68
2846.00,91.88
2845.00,92.08
2844.00,92.29
2843.00,92.51
2842.00,92.73
2841.00,92.94
2840.00,93.16
2839.00,93.37
2838.00,93.58
2837.00,93.78
2836.00,93.97
2835.00,94.16
2834.00,94.34
2833.00,94.51
2832.00,94.67
2831.00,94.82
2830.00,94.96
2829.00,95.09
2828.00,95.21
2827.00,95.32
2826.00,95.42
2825.00,95.51
2824.00,95.59
2823.00,95.66
2822.00,95.73
2821.00,95.79
2820.00,95.84
2819.00,95.88
2818.00,95.92
2817.00,95.96
2816.00,95.99
2815.00,96.02
2814.00,96.05
2813.00,96.08
2812.00,96.10
2811.00,96.13
2810.00,96.15
2809.00,96.17
2808.00,96.19
2807.00,96.21
2806.00,96.22
2805.00,96.24
2804.00,96.25
2803.00,96.27
2802.00,96.29
2801.00,96.30
2800.00,96.32
2799.00,96.33
2798.00,96.34
2797.00,96.35
2796.00,96.36
2795.00,96.37
2794.00,96.38
2793.00,96.39
2792.00,96.41
2791.00,96.42
2790.00,96.43
2789.00,96.44
2788.00,96.45
2787.00,96.46
2786.00,96.47
2785.00,96.47
2784.00,96.48
2783.00,96.49
2782.00,96.50
2781.00,96.51
2780.00,96.52
2779.00,96.53
2778.00,96.54
2777.00,96.55
2776.00,96.57
2775.00,96.57
2774.00,96.58
2773.00,96.59
2772.00,96.60
2771.00,96.60
2770.00,96.61
2769.00,96.62
2768.00,96.63
2767.00,96.63
2766.00,96.64
2765.00,96.64
2764.00,96.65
2763.00,96.65
2762.00,96.66
2761.00,96.66
2760.00,96.66
2759.00,96.67
2758.00,96.67
2757.00,96.67
2756.00,96.68
2755.00,96.68
2754.00,96.68
2753.00,96.69
2752.00,96.69
2751.00,96.69
2750.00,96.69
2749.00,96.69
2748.00,96.70
2747.00,96.70
2746.00,96.70
2745.00,96.70
2744.00,96.70
2743.00,96.70
2742.00,96.70
2741.00,96.70
2740.00,96.70
2739.00,96.70
2738.00,96.70
2737.00,96.70
2736.00,96.71
2735.00,96.71
2734.00,96.71
2733.00,96.71
2732.00,96.71
2731.00,96.71
2730.00,96.71
2729.00,96.71
2728.00,96.71
2727.00,96.72
2726.00,96.72
2725.00,96.72
2724.00,96.72
2723.00,96.72
2722.00,96.72
2721.00,96.72
2720.00,96.72
2719.00,96.72
2718.00,96.72
2717.00,96.73
2716.00,96.73
2715.00,96.73
2714.00,96.73
2713.00,96.73
2712.00,96.73
2711.00,96.74
2710.00,96.74
2709.00,96.74
2708.00,96.74
2707.00,96.74
2706.00,96.74
2705.00,96.74
2704.00,96.74
2703.00,96.74
2702.00,96.74
2701.00,96.74
2700.00,96.75
2699.00,96.75
2698.00,96.75
2697.00,96.75
2696.00,96.75
2695.00,96.75
2694.00,96.75
2693.00,96.76
2692.00,96.76
2691.00,96.76
2690.00,96.75
2689.00,96.75
2688.00,96.75
2687.00,96.75
2686.00,96.75
2685.00,96.75
2684.00,96.75
2683.00,96.75
2682.00,96.75
2681.00,96.75
2680.00,96.75
2679.00,96.75
2678.00,96.75
2677.00,96.75
2676.00,96.75
2675.00,96.75
2674.00,96.75
2673.00,96.75
2672.00,96.75
2671.00,96.75
2670.00,96.75
2669.00,96.75
2668.00,96.75
2667.00,96.75
2666.00,96.74
2665.00,96.74
2664.00,96.73
2663.00,96.72
2662.00,96.70
2661.00,96.69
2660.00,96.69
2659.00,96.68
2658.00,96.67
2657.00,96.66
2656.00,96.66
2655.00,96.66
2654.00,96.65
2653.00,96.65
2652.00,96.64
2651.00,96.64
2650.00,96.63
2649.00,96.63
2648.00,96.63
2647.00,96.63
2646.00,96.62
2645.00,96.62
2644.00,96.61
2643.00,96.61
2642.00,96.60
2641.00,96.59
2640.00,96.58
2639.00,96.58
2638.00,96.57
2637.00,96.57
2636.00,96.57
2635.00,96.57
2634.00,96.58
2633.00,96.58
2632.00,96.58
2631.00,96.58
2630.00,96.59
2629.00,96.60
2628.00,96.61
2627.00,96.62
2626.00,96.63
2625.00,96.63
2624.00,96.63
2623.00,96.63
2622.00,96.63
2621.00,96.63
2620.00,96.63
2619.00,96.63
2618.00,96.63
2617.00,96.63
2616.00,96.64
2615.00,96.64
2614.00,96.64
2613.00,96.63
2612.00,96.63
2611.00,96.63
2610.00,96.62
2609.00,96.62
2608.00,96.61
2607.00,96.61
2606.00,96.61
2605.00,96.61
2604.00,96.61
2603.00,96.62
2602.00,96.63
2601.00,96.63
2600.00,96.64
2599.00,96.64
2598.00,96.64
2597.00,96.65
2596.00,96.65
2595.00,96.65
2594.00,96.66
2593.00,96.66
2592.00,96.67
2591.00,96.67
2590.00,96.68
2589.00,96.68
2588.00,96.67
2587.00,96.67
2586.00,96.67
2585.00,96.67
2584.00,96.66
2583.00,96.66
2582.00,96.67
2581.00,96.67
2580.00,96.68
2579.00,96.68
2578.00,96.69
2577.00,96.69
2576.00,96.69
2575.00,96.70
2574.00,96.70
2573.00,96.71
2572.00,96.71
2571.00,96.71
2570.00,96.71
2569.00,96.71
2568.00,96.70
2567.00,96.70
2566.00,96.70
2565.00,96.70
2564.00,96.70
2563.00,96.70
2562.00,96.70
2561.00,96.71
2560.00,96.71
2559.00,96.71
2558.00,96.71
2557.00,96.71
2556.00,96.70
2555.00,96.70
2554.00,96.71
2553.00,96.71
2552.00,96.71
2551.00,96.71
2550.00,96.70
2549.00,96.70
2548.00,96.70
2547.00,96.71
2546.00,96.70
2545.00,96.70
2544.00,96.70
2543.00,96.70
2542.00,96.71
2541.00,96.71
2540.00,96.71
2539.00,96.71
2538.00,96.71
2537.00,96.71
2536.00,96.72
2535.00,96.72
2534.00,96.72
2533.00,96.72
2532.00,96.72
2531.00,96.71
2530.00,96.71
2529.00,96.71
2528.00,96.71
2527.00,96.71
2526.00,96.71
2525.00,96.71
2524.00,96.71
2523.00,96.71
2522.00,96.71
2521.00,96.71
2520.00,96.71
2519.00,96.72
2518.00,96.72
2517.00,96.72
2516.00,96.72
2515.00,96.72
2514.00,96.71
2513.00,96.71
2512.00,96.71
2511.00,96.71
2510.00,96.71
2509.00,96.72
2508.00,96.73
2507.00,96.73
2506.00,96.74
2505.00,96.74
2504.00,96.75
2503.00,96.76
2502.00,96.76
2501.00,96.76
2500.00,96.76
2499.00,96.75
2498.00,96.76
2497.00,96.76
2496.00,96.76
2495.00,96.76
2494.00,96.77
2493.00,96.77
2492.00,96.77
2491.00,96.77
2490.00,96.77
2489.00,96.77
2488.00,96.77
2487.00,96.77
2486.00,96.77
2485.00,96.78
2484.00,96.79
2483.00,96.79
2482.00,96.80
2481.00,96.80
2480.00,96.80
2479.00,96.80
2478.00,96.80
2477.00,96.81
2476.00,96.81
2475.00,96.81
2474.00,96.81
2473.00,96.81
2472.00,96.81
2471.00,96.81
2470.00,96.81
2469.00,96.81
2468.00,96.81
2467.00,96.81
2466.00,96.80
2465.00,96.80
2464.00,96.80
2463.00,96.79
2462.00,96.80
2461.00,96.80
2460.00,96.80
2459.00,96.80
2458.00,96.79
2457.00,96.79
2456.00,96.78
2455.00,96.78
2454.00,96.77
2453.00,96.77
2452.00,96.78
2451.00,96.78
2450.00,96.78
2449.00,96.78
2448.00,96.79
2447.00,96.79
2446.00,96.79
2445.00,96.79
2444.00,96.79
2443.00,96.80
2442.00,96.80
2441.00,96.81
2440.00,96.81
2439.00,96.81
2438.00,96.81
2437.00,96.81
2436.00,96.81
2435.00,96.81
2434.00,96.82
2433.00,96.82
2432.00,96.83
2431.00,96.84
2430.00,96.84
2429.00,96.84
2428.00,96.84
2427.00,96.84
2426.00,96.84
2425.00,96.84
2424.00,96.84
2423.00,96.84
2422.00,96.85
2421.00,96.85
2420.00,96.85
2419.00,96.85
2418.00,96.85
2417.00,96.85
2416.00,96.85
2415.00,96.85
2414.00,96.85
2413.00,96.85
2412.00,96.85
2411.00,96.85
2410.00,96.85
2409.00,96.85
2408.00,96.86
2407.00,96.86
2406.00,96.88
2405.00,96.88
2404.00,96.89
2403.00,96.89
2402.00,96.89
2401.00,96.89
2400.00,96.89
2399.00,96.89
2398.00,96.89
2397.00,96.90
2396.00,96.90
2395.00,96.90
2394.00,96.90
2393.00,96.90
2392.00,96.90
2391.00,96.91
2390.00,96.91
2389.00,96.91
2388.00,96.91
2387.00,96.91
2386.00,96.91
2385.00,96.91
2384.00,96.91
2383.00,96.91
2382.00,96.90
2381.00,96.90
2380.00,96.89
2379.00,96.89
2378.00,96.89
2377.00,96.90
2376.00,96.90
2375.00,96.90
2374.00,96.90
2373.00,96.89
2372.00,96.89
2371.00,96.89
2370.00,96.89
2369.00,96.89
2368.00,96.90
2367.00,96.90
2366.00,96.90
2365.00,96.89
2364.00,96.88
2363.00,96.87
2362.00,96.85
2361.00,96.83
2360.00,96.81
2359.00,96.80
2358.00,96.79
2357.00,96.80
2356.00,96.81
2355.00,96.81
2354.00,96.82
2353.00,96.82
2352.00,96.82
2351.00,96.82
2350.00,96.81
2349.00,96.80
2348.00,96.80
2347.00,96.80
2346.00,96.81
2345.00,96.81
2344.00,96.79
2343.00,96.76
2342.00,96.73
2341.00,96.70
2340.00,96.69
2339.00,96.69
2338.00,96.69
2337.00,96.70
2336.00,96.70
2335.00,96.71
2334.00,96.72
2333.00,96.73
2332.00,96.74
2331.00,96.75
2330.00,96.75
2329.00,96.73
2328.00,96.70
2327.00,96.63
2326.00,96.54
2325.00,96.46
2324.00,96.40
2323.00,96.39
2322.00,96.40
2321.00,96.42
2320.00,96.43
2319.00,96.45
2318.00,96.46
2317.00,96.47
2316.00,96.48
2315.00,96.49
2314.00,96.50
2313.00,96.51
2312.00,96.52
2311.00,96.53
2310.00,96.54
2309.00,96.55
2308.00,96.56
2307.00,96.57
2306.00,96.57
2305.00,96.58
2304.00,96.59
2303.00,96.59
2302.00,96.59
2301.00,96.59
2300.00,96.59
2299.00,96.59
2298.00,96.59
2297.00,96.58
2296.00,96.58
2295.00,96.57
2294.00,96.56
2293.00,96.54
2292.00,96.53
2291.00,96.51
2290.00,96.50
2289.00,96.48
2288.00,96.47
2287.00,96.45
2286.00,96.44
2285.00,96.44
2284.00,96.43
2283.00,96.44
2282.00,96.46
2281.00,96.47
2280.00,96.49
2279.00,96.50
2278.00,96.51
2277.00,96.51
2276.00,96.51
2275.00,96.52
2274.00,96.52
2273.00,96.51
2272.00,96.51
2271.00,96.51
2270.00,96.51
2269.00,96.50
2268.00,96.50
2267.00,96.51
2266.00,96.52
2265.00,96.53
2264.00,96.52
2263.00,96.51
2262.00,96.49
2261.00,96.47
2260.00,96.44
2259.00,96.41
2258.00,96.39
2257.00,96.36
2256.00,96.33
2255.00,96.30
2254.00,96.27
2253.00,96.21
2252.00,96.14
2251.00,96.03
2250.00,95.88
2249.00,95.70
2248.00,95.48
2247.00,95.21
2246.00,94.90
2245.00,94.55
2244.00,94.17
2243.00,93.75
2242.00,93.32
2241.00,92.90
2240.00,92.53
2239.00,92.25
2238.00,92.08
2237.00,92.07
2236.00,92.22
2235.00,92.52
2234.00,92.93
2233.00,93.41
2232.00,93.92
2231.00,94.40
2230.00,94.84
2229.00,95.21
2228.00,95.50
2227.00,95.72
2226.00,95.88
2225.00,95.99
2224.00,96.08
2223.00,96.14
2222.00,96.20
2221.00,96.23
2220.00,96.26
2219.00,96.28
2218.00,96.29
2217.00,96.30
2216.00,96.31
2215.00,96.31
2214.00,96.32
2213.00,96.34
2212.00,96.35
2211.00,96.36
2210.00,96.38
2209.00,96.38
2208.00,96.39
2207.00,96.40
2206.00,96.40
2205.00,96.40
2204.00,96.39
2203.00,96.38
2202.00,96.38
2201.00,96.37
2200.00,96.37
2199.00,96.37
2198.00,96.36
2197.00,96.36
2196.00,96.36
2195.00,96.35
2194.00,96.33
2193.00,96.31
2192.00,96.30
2191.00,96.30
2190.00,96.29
2189.00,96.27
2188.00,96.25
2187.00,96.23
2186.00,96.22
2185.00,96.22
2184.00,96.25
2183.00,96.30
2182.00,96.35
2181.00,96.39
2180.00,96.40
2179.00,96.39
2178.00,96.38
2177.00,96.38
2176.00,96.39
2175.00,96.42
2174.00,96.45
2173.00,96.45
2172.00,96.42
2171.00,96.38
2170.00,96.33
2169.00,96.27
2168.00,96.21
2167.00,96.16
2166.00,96.12
2165.00,96.10
2164.00,96.07
2163.00,96.04
2162.00,96.03
2161.00,96.08
2160.00,96.26
2159.00,96.53
2158.00,96.81
2157.00,97.00
2156.00,97.06
2155.00,97.04
2154.00,96.99
2153.00,96.94
2152.00,96.89
2151.00,96.86
2150.00,96.84
2149.00,96.82
2148.00,96.81
2147.00,96.83
2146.00,96.85
2145.00,96.87
2144.00,96.88
2143.00,96.87
2142.00,96.87
2141.00,96.87
2140.00,96.89
2139.00,96.90
2138.00,96.90
2137.00,96.91
2136.00,96.94
2135.00,96.99
2134.00,97.05
2133.00,97.08
2132.00,97.08
2131.00,97.06
2130.00,97.02
2129.00,96.99
2128.00,96.96
2127.00,96.93
2126.00,96.91
2125.00,96.88
2124.00,96.85
2123.00,96.83
2122.00,96.81
2121.00,96.80
2120.00,96.78
2119.00,96.75
2118.00,96.73
2117.00,96.71
2116.00,96.68
2115.00,96.66
2114.00,96.64
2113.00,96.63
2112.00,96.64
2111.00,96.64
2110.00,96.65
2109.00,96.65
2108.00,96.64
2107.00,96.64
2106.00,96.64
2105.00,96.65
2104.00,96.65
2103.00,96.65
2102.00,96.65
2101.00,96.65
2100.00,96.65
2099.00,96.66
2098.00,96.67
2097.00,96.70
2096.00,96.73
2095.00,96.77
2094.00,96.79
2093.00,96.79
2092.00,96.77
2091.00,96.75
2090.00,96.73
2089.00,96.71
2088.00,96.69
2087.00,96.67
2086.00,96.66
2085.00,96.64
2084.00,96.63
2083.00,96.61
2082.00,96.59
2081.00,96.58
2080.00,96.57
2079.00,96.57
2078.00,96.58
2077.00,96.59
2076.00,96.59
2075.00,96.59
2074.00,96.58
2073.00,96.58
2072.00,96.59
2071.00,96.59
2070.00,96.60
2069.00,96.61
2068.00,96.60
2067.00,96.59
2066.00,96.59
2065.00,96.58
2064.00,96.58
2063.00,96.58
2062.00,96.59
2061.00,96.59
2060.00,96.60
2059.00,96.59
2058.00,96.59
2057.00,96.58
2056.00,96.57
2055.00,96.56
2054.00,96.54
2053.00,96.48
2052.00,96.39
2051.00,96.31
2050.00,96.27
2049.00,96.28
2048.00,96.32
2047.00,96.36
2046.00,96.39
2045.00,96.40
2044.00,96.41
2043.00,96.40
2042.00,96.39
2041.00,96.38
2040.00,96.37
2039.00,96.36
2038.00,96.34
2037.00,96.32
2036.00,96.33
2035.00,96.36
2034.00,96.40
2033.00,96.44
2032.00,96.47
2031.00,96.48
2030.00,96.48
2029.00,96.48
2028.00,96.49
2027.00,96.49
2026.00,96.50
2025.00,96.50
2024.00,96.51
2023.00,96.52
2022.00,96.52
2021.00,96.53
2020.00,96.53
2019.00,96.53
2018.00,96.54
2017.00,96.54
2016.00,96.53
2015.00,96.52
2014.00,96.51
2013.00,96.51
2012.00,96.50
2011.00,96.49
2010.00,96.48
2009.00,96.47
2008.00,96.50
2007.00,96.56
2006.00,96.62
2005.00,96.65
2004.00,96.64
2003.00,96.60
2002.00,96.57
2001.00,96.54
2000.00,96.52
1999.00,96.50
1998.00,96.48
1997.00,96.45
1996.00,96.41
1995.00,96.38
1994.00,96.35
1993.00,96.32
1992.00,96.30
1991.00,96.27
1990.00,96.25
1989.00,96.22
1988.00,96.19
1987.00,96.15
1986.00,96.12
1985.00,96.08
1984.00,96.04
1983.00,95.99
1982.00,95.92
1981.00,95.84
1980.00,95.79
1979.00,95.79
1978.00,95.86
1977.00,95.97
1976.00,96.06
1975.00,96.11
1974.00,96.13
1973.00,96.12
1972.00,96.11
1971.00,96.09
1970.00,96.07
1969.00,96.05
1968.00,96.02
1967.00,96.01
1966.00,95.99
1965.00,95.97
1964.00,95.95
1963.00,95.93
1962.00,95.92
1961.00,95.93
1960.00,95.94
1959.00,95.95
1958.00,95.94
1957.00,95.92
1956.00,95.89
1955.00,95.86
1954.00,95.84
1953.00,95.83
1952.00,95.83
1951.00,95.84
1950.00,95.84
1949.00,95.85
1948.00,95.86
1947.00,95.88
1946.00,95.91
1945.00,95.93
1944.00,95.96
1943.00,96.01
1942.00,96.05
1941.00,96.09
1940.00,96.13
1939.00,96.17
1938.00,96.22
1937.00,96.27
1936.00,96.32
1935.00,96.37
1934.00,96.41
1933.00,96.45
1932.00,96.48
1931.00,96.50
1930.00,96.53
1929.00,96.55
1928.00,96.57
1927.00,96.59
1926.00,96.60
1925.00,96.61
1924.00,96.61
1923.00,96.61
1922.00,96.61
1921.00,96.61
1920.00,96.61
1919.00,96.62
1918.00,96.63
1917.00,96.63
1916.00,96.62
1915.00,96.61
1914.00,96.60
1913.00,96.59
1912.00,96.59
1911.00,96.58
1910.00,96.57
1909.00,96.55
1908.00,96.52
1907.00,96.50
1906.00,96.48
1905.00,96.46
1904.00,96.45
1903.00,96.43
1902.00,96.41
1901.00,96.38
1900.00,96.36
1899.00,96.34
1898.00,96.32
1897.00,96.30
1896.00,96.28
1895.00,96.25
1894.00,96.23
1893.00,96.21
1892.00,96.19
1891.00,96.17
1890.00,96.15
1889.00,96.13
1888.00,96.11
1887.00,96.09
1886.00,96.07
1885.00,96.06
1884.00,96.05
1883.00,96.03
1882.00,96.02
1881.00,96.01
1880.00,96.01
1879.00,96.01
1878.00,96.01
1877.00,96.01
1876.00,96.02
1875.00,96.04
1874.00,96.06
1873.00,96.08
1872.00,96.10
1871.00,96.12
1870.00,96.15
1869.00,96.19
1868.00,96.24
1867.00,96.28
1866.00,96.32
1865.00,96.35
1864.00,96.39
1863.00,96.43
1862.00,96.47
1861.00,96.50
1860.00,96.53
1859.00,96.56
1858.00,96.59
1857.00,96.62
1856.00,96.64
1855.00,96.65
1854.00,96.67
1853.00,96.68
1852.00,96.69
1851.00,96.70
1850.00,96.71
1849.00,96.71
1848.00,96.72
1847.00,96.71
1846.00,96.71
1845.00,96.71
1844.00,96.71
1843.00,96.70
1842.00,96.69
1841.00,96.67
1840.00,96.66
1839.00,96.64
1838.00,96.63
1837.00,96.61
1836.00,96.60
1835.00,96.58
1834.00,96.56
1833.00,96.54
1832.00,96.51
1831.00,96.49
1830.00,96.46
1829.00,96.43
1828.00,96.40
1827.00,96.38
1826.00,96.36
1825.00,96.33
1824.00,96.31
1823.00,96.28
1822.00,96.26
1821.00,96.24
1820.00,96.23
1819.00,96.23
1818.00,96.23
1817.00,96.23
1816.00,96.22
1815.00,96.20
1814.00,96.17
1813.00,96.15
1812.00,96.13
1811.00,96.12
1810.00,96.11
1809.00,96.11
1808.00,96.11
1807.00,96.11
1806.00,96.11
1805.00,96.12
1804.00,96.14
1803.00,96.16
1802.00,96.19
1801.00,96.22
1800.00,96.26
1799.00,96.29
1798.00,96.33
1797.00,96.36
1796.00,96.39
1795.00,96.42
1794.00,96.45
1793.00,96.49
1792.00,96.52
1791.00,96.55
1790.00,96.57
1789.00,96.59
1788.00,96.60
1787.00,96.62
1786.00,96.63
1785.00,96.63
1784.00,96.62
1783.00,96.61
1782.00,96.60
1781.00,96.58
1780.00,96.57
1779.00,96.56
1778.00,96.55
1777.00,96.54
1776.00,96.54
1775.00,96.53
1774.00,96.52
1773.00,96.51
1772.00,96.51
1771.00,96.50
1770.00,96.48
1769.00,96.47
1768.00,96.46
1767.00,96.45
1766.00,96.42
1765.00,96.40
1764.00,96.38
1763.00,96.36
1762.00,96.33
1761.00,96.30
1760.00,96.27
1759.00,96.25
1758.00,96.22
1757.00,96.20
1756.00,96.17
1755.00,96.14
1754.00,96.11
1753.00,96.08
1752.00,96.04
1751.00,96.00
1750.00,95.93
1749.00,95.85
1748.00,95.76
1747.00,95.65
1746.00,95.53
1745.00,95.39
1744.00,95.21
1743.00,94.99
1742.00,94.74
1741.00,94.43
1740.00,94.06
1739.00,93.65
1738.00,93.28
1737.00,92.93
1736.00,92.54
1735.00,92.00
1734.00,91.37
1733.00,90.84
1732.00,90.45
1731.00,90.14
1730.00,89.86
1729.00,89.65
1728.00,89.52
1727.00,89.47
1726.00,89.50
1725.00,89.62
1724.00,89.81
1723.00,90.07
1722.00,90.35
1721.00,90.66
1720.00,91.00
1719.00,91.43
1718.00,91.95
1717.00,92.46
1716.00,92.90
1715.00,93.27
1714.00,93.62
1713.00,93.92
1712.00,94.19
1711.00,94.44
1710.00,94.67
1709.00,94.87
1708.00,95.03
1707.00,95.19
1706.00,95.34
1705.00,95.46
1704.00,95.55
1703.00,95.62
1702.00,95.69
1701.00,95.77
1700.00,95.83
1699.00,95.87
1698.00,95.89
1697.00,95.91
1696.00,95.95
1695.00,95.99
1694.00,96.01
1693.00,96.01
1692.00,96.01
1691.00,96.02
1690.00,96.03
1689.00,96.03
1688.00,96.03
1687.00,96.02
1686.00,96.02
1685.00,96.02
1684.00,96.01
1683.00,96.01
1682.00,96.02
1681.00,96.03
1680.00,96.03
1679.00,96.04
1678.00,96.05
1677.00,96.05
1676.00,96.05
1675.00,96.06
1674.00,96.06
1673.00,96.05
1672.00,96.05
1671.00,96.06
1670.00,96.07
1669.00,96.08
1668.00,96.09
1667.00,96.10
1666.00,96.12
1665.00,96.14
1664.00,96.15
1663.00,96.17
1662.00,96.19
1661.00,96.19
1660.00,96.20
1659.00,96.20
1658.00,96.21
1657.00,96.21
1656.00,96.20
1655.00,96.20
1654.00,96.21
1653.00,96.21
1652.00,96.21
1651.00,96.21
1650.00,96.20
1649.00,96.20
1648.00,96.20
1647.00,96.19
1646.00,96.17
1645.00,96.14
1644.00,96.10
1643.00,96.07
1642.00,96.04
1641.00,96.02
1640.00,96.00
1639.00,96.00
1638.00,96.01
1637.00,96.03
1636.00,96.06
1635.00,96.10
1634.00,96.12
1633.00,96.14
1632.00,96.14
1631.00,96.15
1630.00,96.15
1629.00,96.14
1628.00,96.11
1627.00,96.09
1626.00,96.07
1625.00,96.06
1624.00,96.04
1623.00,96.02
1622.00,96.01
1621.00,95.99
1620.00,95.98
1619.00,95.96
1618.00,95.94
1617.00,95.91
1616.00,95.85
1615.00,95.78
1614.00,95.71
1613.00,95.60
1612.00,95.46
1611.00,95.23
1610.00,94.91
1609.00,94.45
1608.00,93.86
1607.00,93.16
1606.00,92.41
1605.00,91.68
1604.00,91.06
1603.00,90.69
1602.00,90.67
1601.00,90.99
1600.00,91.55
1599.00,92.23
1598.00,92.92
1597.00,93.53
1596.00,94.03
1595.00,94.42
1594.00,94.72
1593.00,94.94
1592.00,95.09
1591.00,95.18
1590.00,95.20
1589.00,95.11
1588.00,94.91
1587.00,94.63
1586.00,94.33
1585.00,94.09
1584.00,93.98
1583.00,94.07
1582.00,94.33
1581.00,94.68
1580.00,95.02
1579.00,95.31
1578.00,95.55
1577.00,95.76
1576.00,95.92
1575.00,96.04
1574.00,96.12
1573.00,96.16
1572.00,96.21
1571.00,96.25
1570.00,96.29
1569.00,96.31
1568.00,96.32
1567.00,96.32
1566.00,96.34
1565.00,96.34
1564.00,96.34
1563.00,96.33
1562.00,96.33
1561.00,96.33
1560.00,96.31
1559.00,96.27
1558.00,96.23
1557.00,96.21
1556.00,96.19
1555.00,96.18
1554.00,96.18
1553.00,96.17
1552.00,96.15
1551.00,96.13
1550.00,96.12
1549.00,96.11
1548.00,96.10
1547.00,96.10
1546.00,96.11
1545.00,96.11
1544.00,96.11
1543.00,96.11
1542.00,96.12
1541.00,96.14
1540.00,96.16
1539.00,96.19
1538.00,96.22
1537.00,96.25
1536.00,96.27
1535.00,96.30
1534.00,96.33
1533.00,96.36
1532.00,96.37
1531.00,96.38
1530.00,96.40
1529.00,96.41
1528.00,96.41
1527.00,96.41
1526.00,96.42
1525.00,96.41
1524.00,96.40
1523.00,96.39
1522.00,96.40
1521.00,96.40
1520.00,96.38
1519.00,96.36
1518.00,96.35
1517.00,96.34
1516.00,96.31
1515.00,96.29
1514.00,96.28
1513.00,96.26
1512.00,96.22
1511.00,96.18
1510.00,96.15
1509.00,96.10
1508.00,95.99
1507.00,95.83
1506.00,95.64
1505.00,95.44
1504.00,95.20
1503.00,94.88
1502.00,94.41
1501.00,93.67
1500.00,92.52
1499.00,90.79
1498.00,88.29
1497.00,85.10
1496.00,81.95
1495.00,79.82
1494.00,79.09
1493.00,79.69
1492.00,81.44
1491.00,84.03
1490.00,86.80
1489.00,89.04
1488.00,90.58
1487.00,91.65
1486.00,92.43
1485.00,93.01
1484.00,93.46
1483.00,93.81
1482.00,94.09
1481.00,94.28
1480.00,94.40
1479.00,94.47
1478.00,94.50
1477.00,94.47
1476.00,94.40
1475.00,94.32
1474.00,94.23
1473.00,94.11
1472.00,93.99
1471.00,93.90
1470.00,93.80
1469.00,93.68
1468.00,93.52
1467.00,93.35
1466.00,93.12
1465.00,92.80
1464.00,92.41
1463.00,91.99
1462.00,91.50
1461.00,90.85
1460.00,89.92
1459.00,88.39
1458.00,85.68
1457.00,81.81
1456.00,78.13
1455.00,75.63
1454.00,74.16
1453.00,73.53
1452.00,73.69
1451.00,74.47
1450.00,75.57
1449.00,76.77
1448.00,78.02
1447.00,79.20
1446.00,80.26
1445.00,81.22
1444.00,82.17
1443.00,83.08
1442.00,83.91
1441.00,84.62
1440.00,85.24
1439.00,85.82
1438.00,86.42
1437.00,87.08
1436.00,87.75
1435.00,88.31
1434.00,88.78
1433.00,89.24
1432.00,89.74
1431.00,90.27
1430.00,90.80
1429.00,91.28
1428.00,91.71
1427.00,92.07
1426.00,92.36
1425.00,92.63
1424.00,92.87
1423.00,93.03
1422.00,93.14
1421.00,93.23
1420.00,93.33
1419.00,93.42
1418.00,93.51
1417.00,93.60
1416.00,93.70
1415.00,93.79
1414.00,93.87
1413.00,93.95
1412.00,94.02
1411.00,94.06
1410.00,94.08
1409.00,94.09
1408.00,94.10
1407.00,94.08
1406.00,94.04
1405.00,94.00
1404.00,93.97
1403.00,93.93
1402.00,93.89
1401.00,93.86
1400.00,93.83
1399.00,93.80
1398.00,93.77
1397.00,93.74
1396.00,93.72
1395.00,93.70
1394.00,93.68
1393.00,93.66
1392.00,93.65
1391.00,93.63
1390.00,93.61
1389.00,93.58
1388.00,93.53
1387.00,93.46
1386.00,93.36
1385.00,93.25
1384.00,93.12
1383.00,92.98
1382.00,92.81
1381.00,92.64
1380.00,92.46
1379.00,92.29
1378.00,92.13
1377.00,91.99
1376.00,91.87
1375.00,91.76
1374.00,91.66
1373.00,91.57
1372.00,91.51
1371.00,91.46
1370.00,91.42
1369.00,91.38
1368.00,91.35
1367.00,91.32
1366.00,91.30
1365.00,91.29
1364.00,91.28
1363.00,91.27
1362.00,91.26
1361.00,91.26
1360.00,91.26
1359.00,91.26
1358.00,91.26
1357.00,91.26
1356.00,91.27
1355.00,91.28
1354.00,91.29
1353.00,91.29
1352.00,91.31
1351.00,91.32
1350.00,91.33
1349.00,91.35
1348.00,91.38
1347.00,91.41
1346.00,91.44
1345.00,91.48
1344.00,91.53
1343.00,91.57
1342.00,91.62
1341.00,91.68
1340.00,91.73
1339.00,91.77
1338.00,91.79
1337.00,91.80
1336.00,91.81
1335.00,91.82
1334.00,91.82
1333.00,91.82
1332.00,91.82
1331.00,91.83
1330.00,91.85
1329.00,91.86
1328.00,91.89
1327.00,91.91
1326.00,91.92
1325.00,91.94
1324.00,91.95
1323.00,91.96
1322.00,91.96
1321.00,91.96
1320.00,91.95
1319.00,91.94
1318.00,91.92
1317.00,91.91
1316.00,91.90
1315.00,91.90
1314.00,91.90
1313.00,91.90
1312.00,91.91
1311.00,91.93
1310.00,91.95
1309.00,91.98
1308.00,92.01
1307.00,92.05
1306.00,92.10
1305.00,92.16
1304.00,92.23
1303.00,92.30
1302.00,92.37
1301.00,92.44
1300.00,92.51
1299.00,92.57
1298.00,92.62
1297.00,92.67
1296.00,92.72
1295.00,92.77
1294.00,92.81
1293.00,92.85
1292.00,92.89
1291.00,92.93
1290.00,92.96
1289.00,92.99
1288.00,93.02
1287.00,93.05
1286.00,93.07
1285.00,93.09
1284.00,93.10
1283.00,93.11
1282.00,93.11
1281.00,93.11
1280.00,93.10
1279.00,93.09
1278.00,93.08
1277.00,93.06
1276.00,93.05
1275.00,93.04
1274.00,93.02
1273.00,93.01
1272.00,93.00
1271.00,92.99
1270.00,92.97
1269.00,92.95
1268.00,92.94
1267.00,92.91
1266.00,92.89
1265.00,92.86
1264.00,92.84
1263.00,92.84
1262.00,92.84
1261.00,92.86
1260.00,92.90
1259.00,92.96
1258.00,93.02
1257.00,93.09
1256.00,93.17
1255.00,93.25
1254.00,93.33
1253.00,93.40
1252.00,93.48
1251.00,93.55
1250.00,93.61
1249.00,93.67
1248.00,93.71
1247.00,93.75
1246.00,93.78
1245.00,93.80
1244.00,93.81
1243.00,93.81
1242.00,93.80
1241.00,93.79
1240.00,93.80
1239.00,93.80
1238.00,93.81
1237.00,93.82
1236.00,93.83
1235.00,93.85
1234.00,93.87
1233.00,93.89
1232.00,93.91
1231.00,93.93
1230.00,93.94
1229.00,93.94
1228.00,93.94
1227.00,93.93
1226.00,93.91
1225.00,93.87
1224.00,93.83
1223.00,93.79
1222.00,93.73
1221.00,93.67
1220.00,93.59
1219.00,93.51
1218.00,93.42
1217.00,93.33
1216.00,93.25
1215.00,93.17
1214.00,93.08
1213.00,93.00
1212.00,92.93
1211.00,92.85
1210.00,92.79
1209.00,92.73
1208.00,92.67
1207.00,92.62
1206.00,92.56
1205.00,92.51
1204.00,92.46
1203.00,92.41
1202.00,92.37
1201.00,92.33
1200.00,92.31
1199.00,92.30
1198.00,92.29
1197.00,92.29
1196.00,92.28
1195.00,92.26
1194.00,92.23
1193.00,92.19
1192.00,92.14
1191.00,92.05
1190.00,91.93
1189.00,91.77
1188.00,91.59
1187.00,91.39
1186.00,91.18
1185.00,90.98
1184.00,90.80
1183.00,90.68
1182.00,90.61
1181.00,90.60
1180.00,90.63
1179.00,90.69
1178.00,90.74
1177.00,90.77
1176.00,90.77
1175.00,90.75
1174.00,90.72
1173.00,90.67
1172.00,90.62
1171.00,90.56
1170.00,90.51
1169.00,90.45
1168.00,90.40
1167.00,90.35
1166.00,90.31
1165.00,90.25
1164.00,90.19
1163.00,90.10
1162.00,90.00
1161.00,89.87
1160.00,89.72
1159.00,89.58
1158.00,89.45
1157.00,89.38
1156.00,89.39
1155.00,89.51
1154.00,89.75
1153.00,90.09
1152.00,90.50
1151.00,90.95
1150.00,91.39
1149.00,91.80
1148.00,92.19
1147.00,92.54
1146.00,92.87
1145.00,93.17
1144.00,93.44
1143.00,93.69
1142.00,93.90
1141.00,94.09
1140.00,94.26
1139.00,94.40
1138.00,94.51
1137.00,94.61
1136.00,94.69
1135.00,94.76
1134.00,94.81
1133.00,94.84
1132.00,94.86
1131.00,94.87
1130.00,94.87
1129.00,94.86
1128.00,94.83
1127.00,94.80
1126.00,94.75
1125.00,94.70
1124.00,94.63
1123.00,94.54
1122.00,94.45
1121.00,94.35
1120.00,94.24
1119.00,94.14
1118.00,94.06
1117.00,93.99
1116.00,93.95
1115.00,93.91
1114.00,93.89
1113.00,93.87
1112.00,93.86
1111.00,93.84
1110.00,93.83
1109.00,93.81
1108.00,93.79
1107.00,93.77
1106.00,93.74
1105.00,93.71
1104.00,93.69
1103.00,93.66
1102.00,93.64
1101.00,93.61
1100.00,93.57
1099.00,93.54
1098.00,93.50
1097.00,93.46
1096.00,93.43
1095.00,93.39
1094.00,93.36
1093.00,93.32
1092.00,93.26
1091.00,93.20
1090.00,93.12
1089.00,93.04
1088.00,92.94
1087.00,92.82
1086.00,92.70
1085.00,92.55
1084.00,92.39
1083.00,92.21
1082.00,92.01
1081.00,91.80
1080.00,91.58
1079.00,91.34
1078.00,91.10
1077.00,90.84
1076.00,90.58
1075.00,90.33
1074.00,90.10
1073.00,89.88
1072.00,89.70
1071.00,89.57
1070.00,89.51
1069.00,89.52
1068.00,89.58
1067.00,89.68
1066.00,89.82
1065.00,89.99
1064.00,90.17
1063.00,90.36
1062.00,90.55
1061.00,90.73
1060.00,90.91
1059.00,91.08
1058.00,91.25
1057.00,91.41
1056.00,91.56
1055.00,91.69
1054.00,91.81
1053.00,91.91
1052.00,92.01
1051.00,92.09
1050.00,92.16
1049.00,92.22
1048.00,92.26
1047.00,92.29
1046.00,92.32
1045.00,92.35
1044.00,92.37
1043.00,92.37
1042.00,92.35
1041.00,92.30
1040.00,92.19
1039.00,92.02
1038.00,91.76
1037.00,91.40
1036.00,90.91
1035.00,90.29
1034.00,89.57
1033.00,88.79
1032.00,88.03
1031.00,87.39
1030.00,86.96
1029.00,86.79
1028.00,86.87
1027.00,87.16
1026.00,87.59
1025.00,88.05
1024.00,88.49
1023.00,88.88
1022.00,89.21
1021.00,89.48
1020.00,89.72
1019.00,89.91
1018.00,90.09
1017.00,90.24
1016.00,90.37
1015.00,90.48
1014.00,90.57
1013.00,90.66
1012.00,90.73
1011.00,90.79
1010.00,90.83
1009.00,90.84
1008.00,90.83
1007.00,90.79
1006.00,90.73
1005.00,90.68
1004.00,90.66
1003.00,90.72
1002.00,90.86
1001.00,91.03
1000.00,91.19
999.00,91.28
998.00,91.29
997.00,91.25
996.00,91.17
995.00,91.10
994.00,91.05
993.00,91.02
992.00,91.01
991.00,91.01
990.00,91.03
989.00,91.04
988.00,91.04
987.00,91.02
986.00,90.99
985.00,90.95
984.00,90.88
983.00,90.78
982.00,90.67
981.00,90.51
980.00,90.32
979.00,90.06
978.00,89.74
977.00,89.34
976.00,88.86
975.00,88.29
974.00,87.65
973.00,86.95
972.00,86.21
971.00,85.48
970.00,84.80
969.00,84.21
968.00,83.75
967.00,83.49
966.00,83.44
965.00,83.62
964.00,84.02
963.00,84.62
962.00,85.38
961.00,86.22
960.00,87.09
959.00,87.92
958.00,88.68
957.00,89.34
956.00,89.91
955.00,90.38
954.00,90.78
953.00,91.11
952.00,91.38
951.00,91.61
950.00,91.80
949.00,91.97
948.00,92.11
947.00,92.22
946.00,92.32
945.00,92.40
944.00,92.49
943.00,92.56
942.00,92.64
941.00,92.71
940.00,92.77
939.00,92.84
938.00,92.91
937.00,92.98
936.00,93.05
935.00,93.12
934.00,93.18
933.00,93.24
932.00,93.28
931.00,93.31
930.00,93.32
929.00,93.31
928.00,93.28
927.00,93.23
926.00,93.15
925.00,93.03
924.00,92.87
923.00,92.67
922.00,92.41
921.00,92.10
920.00,91.74
919.00,91.32
918.00,90.87
917.00,90.38
916.00,89.87
915.00,89.38
914.00,88.93
913.00,88.56
912.00,88.29
911.00,88.16
910.00,88.17
909.00,88.34
908.00,88.64
907.00,89.06
906.00,89.56
905.00,90.09
904.00,90.63
903.00,91.14
902.00,91.62
901.00,92.03
900.00,92.38
899.00,92.67
898.00,92.91
897.00,93.11
896.00,93.27
895.00,93.40
894.00,93.50
893.00,93.58
892.00,93.65
891.00,93.71
890.00,93.76
889.00,93.80
888.00,93.83
887.00,93.85
886.00,93.85
885.00,93.84
884.00,93.83
883.00,93.80
882.00,93.77
881.00,93.73
880.00,93.70
879.00,93.66
878.00,93.63
877.00,93.63
876.00,93.66
875.00,93.71
874.00,93.78
873.00,93.86
872.00,93.95
871.00,94.03
870.00,94.10
869.00,94.15
868.00,94.19
867.00,94.21
866.00,94.23
865.00,94.24
864.00,94.25
863.00,94.25
862.00,94.25
861.00,94.24
860.00,94.21
859.00,94.17
858.00,94.11
857.00,94.03
856.00,93.93
855.00,93.82
854.00,93.69
853.00,93.55
852.00,93.40
851.00,93.26
850.00,93.12
849.00,93.00
848.00,92.88
847.00,92.79
846.00,92.72
845.00,92.67
844.00,92.66
843.00,92.70
842.00,92.77
841.00,92.89
840.00,93.03
839.00,93.19
838.00,93.37
837.00,93.56
836.00,93.75
835.00,93.92
834.00,94.06
833.00,94.18
832.00,94.26
831.00,94.33
830.00,94.38
829.00,94.41
828.00,94.43
827.00,94.43
826.00,94.43
825.00,94.42
824.00,94.41
823.00,94.38
822.00,94.35
821.00,94.33
820.00,94.30
819.00,94.28
818.00,94.26
817.00,94.25
816.00,94.23
815.00,94.21
814.00,94.18
813.00,94.15
812.00,94.11
811.00,94.07
810.00,94.04
809.00,94.02
808.00,94.00
807.00,93.98
806.00,93.96
805.00,93.93
804.00,93.89
803.00,93.86
802.00,93.83
801.00,93.80
800.00,93.76
799.00,93.72
798.00,93.67
797.00,93.60
796.00,93.52
795.00,93.45
794.00,93.36
793.00,93.27
792.00,93.17
791.00,93.04
790.00,92.89
789.00,92.69
788.00,92.46
787.00,92.19
786.00,91.89
785.00,91.55
784.00,91.16
783.00,90.72
782.00,90.22
781.00,89.64
780.00,89.00
779.00,88.29
778.00,87.50
777.00,86.64
776.00,85.71
775.00,84.71
774.00,83.63
773.00,82.49
772.00,81.27
771.00,79.95
770.00,78.54
769.00,77.04
768.00,75.45
767.00,73.80
766.00,72.13
765.00,70.49
764.00,68.94
763.00,67.53
762.00,66.33
761.00,65.38
760.00,64.74
759.00,64.45
758.00,64.54
757.00,64.96
756.00,65.69
755.00,66.68
754.00,67.87
753.00,69.17
752.00,70.51
751.00,71.85
750.00,73.15
749.00,74.38
748.00,75.54
747.00,76.63
746.00,77.65
745.00,78.57
744.00,79.40
743.00,80.13
742.00,80.77
741.00,81.36
740.00,81.95
739.00,82.57
738.00,83.24
737.00,83.96
736.00,84.74
735.00,85.52
734.00,86.29
733.00,87.00
732.00,87.66
731.00,88.27
730.00,88.81
729.00,89.29
728.00,89.70
727.00,90.05
726.00,90.36
725.00,90.61
724.00,90.82
723.00,90.98
722.00,91.07
721.00,91.08
720.00,91.02
719.00,90.87
718.00,90.58
717.00,90.08
716.00,89.29
715.00,88.11
714.00,86.47
713.00,84.32
712.00,81.64
711.00,78.45
710.00,74.83
709.00,70.86
708.00,66.66
707.00,62.32
706.00,57.92
705.00,53.49
704.00,49.09
703.00,44.81
702.00,40.74
701.00,37.02
700.00,33.91
699.00,31.81
698.00,31.16
697.00,32.35
696.00,35.48
695.00,40.29
694.00,46.10
693.00,52.10
692.00,57.57
691.00,62.18
690.00,65.88
689.00,68.79
688.00,71.09
687.00,72.92
686.00,74.40
685.00,75.63
684.00,76.64
683.00,77.49
682.00,78.23
681.00,78.86
680.00,79.43
679.00,79.94
678.00,80.41
677.00,80.84
676.00,81.22
675.00,81.57
674.00,81.90
673.00,82.19
672.00,82.43
671.00,82.64
670.00,82.84
669.00,83.12
668.00,83.52
667.00,83.89
666.00,84.19
665.00,84.45
664.00,84.71
663.00,84.95
662.00,85.19
661.00,85.43
660.00,85.66
659.00,85.89
658.00,86.11
657.00,86.28
656.00,86.45
655.00,86.61
654.00,86.76
653.00,86.90
652.00,87.03
651.00,87.12
650.00,87.18
